4000,96.47
3999,96.47
3998,96.47
3997,96.46
3996,96.46
3995,96.46
3994,96.47
3993,96.47
3992,96.47
3991,96.47
3990,96.47
3989,96.47
3988,96.47
3987,96.47
3986,96.48
3985,96.48
3984,96.48
3983,96.48
3982,96.48
3981,96.48
3980,96.48
3979,96.48
3978,96.48
3977,96.48
3976,96.48
3975,96.48
3974,96.48
3973,96.48
3972,96.49
3971,96.49
3970,96.49
3969,96.49
3968,96.49
3967,96.5
3966,96.5
3965,96.5
3964,96.5
3963,96.5
3962,96.5
3961,96.5
3960,96.5
3959,96.5
3958,96.51
3957,96.51
3956,96.51
3955,96.51
3954,96.51
3953,96.5
3952,96.5
3951,96.5
3950,96.5
3949,96.5
3948,96.5
3947,96.5
3946,96.49
3945,96.49
3944,96.49
3943,96.5
3942,96.5
3941,96.51
3940,96.51
3939,96.52
3938,96.53
3937,96.53
3936,96.53
3935,96.53
3934,96.52
3933,96.52
3932,96.51
3931,96.51
3930,96.51
3929,96.52
3928,96.52
3927,96.52
3926,96.52
3925,96.52
3924,96.52
3923,96.52
3922,96.52
3921,96.52
3920,96.52
3919,96.52
3918,96.52
3917,96.52
3916,96.53
3915,96.53
3914,96.54
3913,96.55
3912,96.56
3911,96.56
3910,96.56
3909,96.56
3908,96.54
3907,96.53
3906,96.52
3905,96.52
3904,96.51
3903,96.5
3902,96.48
3901,96.47
3900,96.48
3899,96.5
3898,96.52
3897,96.53
3896,96.55
3895,96.55
3894,96.56
3893,96.56
3892,96.57
3891,96.57
3890,96.57
3889,96.56
3888,96.54
3887,96.55
3886,96.56
3885,96.56
3884,96.55
3883,96.53
3882,96.53
3881,96.55
3880,96.57
3879,96.58
3878,96.58
3877,96.57
3876,96.58
3875,96.59
3874,96.59
3873,96.58
3872,96.56
3871,96.56
3870,96.57
3869,96.58
3868,96.57
3867,96.56
3866,96.57
3865,96.58
3864,96.59
3863,96.59
3862,96.59
3861,96.6
3860,96.61
3859,96.62
3858,96.61
3857,96.58
3856,96.57
3855,96.59
3854,96.6
3853,96.58
3852,96.57
3851,96.57
3850,96.59
3849,96.61
3848,96.64
3847,96.65
3846,96.65
3845,96.65
3844,96.65
3843,96.64
3842,96.63
3841,96.61
3840,96.6
3839,96.6
3838,96.6
3837,96.61
3836,96.61
3835,96.62
3834,96.62
3833,96.64
3832,96.65
3831,96.67
3830,96.67
3829,96.67
3828,96.68
3827,96.69
3826,96.69
3825,96.69
3824,96.67
3823,96.66
3822,96.66
3821,96.67
3820,96.66
3819,96.65
3818,96.64
3817,96.66
3816,96.69
3815,96.7
3814,96.7
3813,96.7
3812,96.72
3811,96.73
3810,96.73
3809,96.73
3808,96.74
3807,96.74
3806,96.74
3805,96.72
3804,96.69
3803,96.69
3802,96.71
3801,96.72
3800,96.71
3799,96.7
3798,96.7
3797,96.72
3796,96.74
3795,96.75
3794,96.76
3793,96.77
3792,96.78
3791,96.79
3790,96.8
3789,96.8
3788,96.8
3787,96.8
3786,96.8
3785,96.8
3784,96.8
3783,96.79
3782,96.79
3781,96.79
3780,96.8
3779,96.8
3778,96.8
3777,96.8
3776,96.81
3775,96.82
3774,96.82
3773,96.82
3772,96.82
3771,96.82
3770,96.83
3769,96.82
3768,96.81
3767,96.81
3766,96.82
3765,96.83
3764,96.83
3763,96.83
3762,96.82
3761,96.83
3760,96.83
3759,96.83
3758,96.83
3757,96.83
3756,96.83
3755,96.82
3754,96.82
3753,96.83
3752,96.84
3751,96.83
3750,96.82
3749,96.81
3748,96.8
3747,96.77
3746,96.77
3745,96.8
3744,96.82
3743,96.82
3742,96.81
3741,96.82
3740,96.82
3739,96.82
3738,96.81
3737,96.8
3736,96.8
3735,96.8
3734,96.8
3733,96.81
3732,96.83
3731,96.85
3730,96.85
3729,96.85
3728,96.86
3727,96.87
3726,96.88
3725,96.88
3724,96.87
3723,96.88
3722,96.88
3721,96.89
3720,96.9
3719,96.91
3718,96.92
3717,96.93
3716,96.93
3715,96.93
3714,96.92
3713,96.92
3712,96.9
3711,96.88
3710,96.87
3709,96.88
3708,96.89
3707,96.91
3706,96.93
3705,96.93
3704,96.93
3703,96.94
3702,96.94
3701,96.94
3700,96.93
3699,96.93
3698,96.93
3697,96.94
3696,96.94
3695,96.94
3694,96.93
3693,96.92
3692,96.91
3691,96.91
3690,96.9
3689,96.9
3688,96.9
3687,96.9
3686,96.9
3685,96.9
3684,96.91
3683,96.92
3682,96.91
3681,96.89
3680,96.87
3679,96.83
3678,96.78
3677,96.76
3676,96.76
3675,96.76
3674,96.76
3673,96.75
3672,96.76
3671,96.78
3670,96.79
3669,96.8
3668,96.8
3667,96.8
3666,96.82
3665,96.83
3664,96.84
3663,96.84
3662,96.84
3661,96.83
3660,96.82
3659,96.81
3658,96.81
3657,96.8
3656,96.8
3655,96.78
3654,96.76
3653,96.73
3652,96.72
3651,96.72
3650,96.71
3649,96.67
3648,96.64
3647,96.64
3646,96.65
3645,96.67
3644,96.68
3643,96.7
3642,96.71
3641,96.71
3640,96.71
3639,96.71
3638,96.7
3637,96.69
3636,96.68
3635,96.67
3634,96.66
3633,96.65
3632,96.63
3631,96.61
3630,96.6
3629,96.58
3628,96.56
3627,96.55
3626,96.55
3625,96.56
3624,96.57
3623,96.57
3622,96.57
3621,96.55
3620,96.54
3619,96.52
3618,96.5
3617,96.48
3616,96.47
3615,96.47
3614,96.47
3613,96.47
3612,96.46
3611,96.44
3610,96.43
3609,96.41
3608,96.4
3607,96.38
3606,96.38
3605,96.38
3604,96.39
3603,96.39
3602,96.38
3601,96.37
3600,96.36
3599,96.34
3598,96.33
3597,96.31
3596,96.3
3595,96.28
3594,96.27
3593,96.27
3592,96.27
3591,96.26
3590,96.25
3589,96.23
3588,96.2
3587,96.17
3586,96.15
3585,96.14
3584,96.14
3583,96.15
3582,96.15
3581,96.15
3580,96.14
3579,96.14
3578,96.13
3577,96.11
3576,96.1
3575,96.09
3574,96.07
3573,96.06
3572,96.05
3571,96.03
3570,96.01
3569,95.99
3568,95.95
3567,95.9
3566,95.86
3565,95.84
3564,95.84
3563,95.85
3562,95.86
3561,95.86
3560,95.85
3559,95.85
3558,95.84
3557,95.83
3556,95.82
3555,95.8
3554,95.79
3553,95.76
3552,95.74
3551,95.73
3550,95.71
3549,95.7
3548,95.68
3547,95.66
3546,95.63
3545,95.61
3544,95.59
3543,95.58
3542,95.58
3541,95.57
3540,95.56
3539,95.55
3538,95.54
3537,95.52
3536,95.51
3535,95.49
3534,95.48
3533,95.47
3532,95.46
3531,95.45
3530,95.43
3529,95.41
3528,95.39
3527,95.36
3526,95.34
3525,95.32
3524,95.3
3523,95.29
3522,95.28
3521,95.27
3520,95.27
3519,95.26
3518,95.25
3517,95.24
3516,95.22
3515,95.21
3514,95.19
3513,95.18
3512,95.17
3511,95.15
3510,95.13
3509,95.11
3508,95.1
3507,95.09
3506,95.08
3505,95.06
3504,95.04
3503,95.02
3502,95
3501,94.98
3500,94.98
3499,94.98
3498,94.97
3497,94.96
3496,94.95
3495,94.94
3494,94.93
3493,94.92
3492,94.91
3491,94.9
3490,94.89
3489,94.88
3488,94.86
3487,94.85
3486,94.83
3485,94.83
3484,94.81
3483,94.8
3482,94.79
3481,94.77
3480,94.76
3479,94.76
3478,94.76
3477,94.75
3476,94.74
3475,94.73
3474,94.71
3473,94.7
3472,94.69
3471,94.67
3470,94.66
3469,94.65
3468,94.64
3467,94.63
3466,94.63
3465,94.62
3464,94.6
3463,94.59
3462,94.58
3461,94.57
3460,94.56
3459,94.55
3458,94.54
3457,94.53
3456,94.51
3455,94.5
3454,94.49
3453,94.48
3452,94.47
3451,94.46
3450,94.45
3449,94.43
3448,94.42
3447,94.4
3446,94.38
3445,94.36
3444,94.35
3443,94.34
3442,94.33
3441,94.31
3440,94.3
3439,94.29
3438,94.27
3437,94.26
3436,94.24
3435,94.23
3434,94.21
3433,94.19
3432,94.18
3431,94.16
3430,94.14
3429,94.13
3428,94.11
3427,94.1
3426,94.08
3425,94.07
3424,94.05
3423,94.03
3422,94.01
3421,93.98
3420,93.96
3419,93.94
3418,93.92
3417,93.91
3416,93.9
3415,93.88
3414,93.86
3413,93.84
3412,93.82
3411,93.8
3410,93.78
3409,93.75
3408,93.73
3407,93.71
3406,93.69
3405,93.66
3404,93.64
3403,93.62
3402,93.6
3401,93.59
3400,93.58
3399,93.57
3398,93.56
3397,93.55
3396,93.55
3395,93.54
3394,93.53
3393,93.52
3392,93.5
3391,93.49
3390,93.48
3389,93.48
3388,93.47
3387,93.46
3386,93.44
3385,93.43
3384,93.41
3383,93.4
3382,93.39
3381,93.38
3380,93.37
3379,93.35
3378,93.33
3377,93.31
3376,93.3
3375,93.28
3374,93.27
3373,93.26
3372,93.25
3371,93.23
3370,93.22
3369,93.2
3368,93.18
3367,93.16
3366,93.14
3365,93.12
3364,93.11
3363,93.09
3362,93.07
3361,93.06
3360,93.04
3359,93.03
3358,93.01
3357,93
3356,92.98
3355,92.96
3354,92.95
3353,92.93
3352,92.91
3351,92.89
3350,92.87
3349,92.86
3348,92.84
3347,92.82
3346,92.81
3345,92.79
3344,92.77
3343,92.74
3342,92.72
3341,92.7
3340,92.68
3339,92.66
3338,92.64
3337,92.61
3336,92.59
3335,92.57
3334,92.55
3333,92.53
3332,92.51
3331,92.49
3330,92.47
3329,92.44
3328,92.42
3327,92.39
3326,92.36
3325,92.33
3324,92.3
3323,92.27
3322,92.24
3321,92.21
3320,92.17
3319,92.14
3318,92.11
3317,92.08
3316,92.05
3315,92.01
3314,91.98
3313,91.95
3312,91.92
3311,91.89
3310,91.86
3309,91.83
3308,91.81
3307,91.78
3306,91.75
3305,91.73
3304,91.71
3303,91.69
3302,91.68
3301,91.67
3300,91.67
3299,91.68
3298,91.69
3297,91.7
3296,91.72
3295,91.73
3294,91.75
3293,91.76
3292,91.77
3291,91.77
3290,91.78
3289,91.79
3288,91.81
3287,91.82
3286,91.84
3285,91.86
3284,91.88
3283,91.9
3282,91.92
3281,91.94
3280,91.95
3279,91.97
3278,92
3277,92.02
3276,92.04
3275,92.07
3274,92.09
3273,92.12
3272,92.14
3271,92.16
3270,92.17
3269,92.18
3268,92.2
3267,92.22
3266,92.24
3265,92.26
3264,92.29
3263,92.31
3262,92.34
3261,92.37
3260,92.4
3259,92.43
3258,92.47
3257,92.5
3256,92.53
3255,92.55
3254,92.57
3253,92.59
3252,92.61
3251,92.64
3250,92.68
3249,92.71
3248,92.75
3247,92.77
3246,92.79
3245,92.8
3244,92.82
3243,92.84
3242,92.86
3241,92.89
3240,92.91
3239,92.94
3238,92.96
3237,92.99
3236,93.01
3235,93.04
3234,93.06
3233,93.08
3232,93.1
3231,93.11
3230,93.12
3229,93.13
3228,93.14
3227,93.15
3226,93.17
3225,93.19
3224,93.2
3223,93.22
3222,93.23
3221,93.25
3220,93.26
3219,93.27
3218,93.29
3217,93.3
3216,93.32
3215,93.34
3214,93.35
3213,93.37
3212,93.38
3211,93.39
3210,93.41
3209,93.42
3208,93.44
3207,93.45
3206,93.47
3205,93.48
3204,93.5
3203,93.51
3202,93.52
3201,93.53
3200,93.54
3199,93.54
3198,93.55
3197,93.56
3196,93.57
3195,93.58
3194,93.59
3193,93.6
3192,93.62
3191,93.63
3190,93.64
3189,93.66
3188,93.67
3187,93.68
3186,93.69
3185,93.7
3184,93.71
3183,93.72
3182,93.74
3181,93.76
3180,93.77
3179,93.78
3178,93.8
3177,93.81
3176,93.82
3175,93.84
3174,93.86
3173,93.87
3172,93.89
3171,93.9
3170,93.92
3169,93.93
3168,93.95
3167,93.96
3166,93.97
3165,93.99
3164,94
3163,94.02
3162,94.03
3161,94.04
3160,94.06
3159,94.07
3158,94.08
3157,94.1
3156,94.11
3155,94.13
3154,94.14
3153,94.15
3152,94.16
3151,94.16
3150,94.17
3149,94.17
3148,94.18
3147,94.19
3146,94.2
3145,94.21
3144,94.22
3143,94.23
3142,94.24
3141,94.26
3140,94.27
3139,94.27
3138,94.27
3137,94.27
3136,94.28
3135,94.28
3134,94.28
3133,94.29
3132,94.29
3131,94.3
3130,94.3
3129,94.3
3128,94.3
3127,94.3
3126,94.3
3125,94.31
3124,94.31
3123,94.32
3122,94.33
3121,94.33
3120,94.34
3119,94.34
3118,94.34
3117,94.33
3116,94.33
3115,94.32
3114,94.31
3113,94.3
3112,94.3
3111,94.3
3110,94.3
3109,94.29
3108,94.28
3107,94.27
3106,94.26
3105,94.26
3104,94.26
3103,94.27
3102,94.27
3101,94.26
3100,94.26
3099,94.26
3098,94.25
3097,94.25
3096,94.25
3095,94.25
3094,94.26
3093,94.28
3092,94.29
3091,94.3
3090,94.31
3089,94.32
3088,94.33
3087,94.34
3086,94.35
3085,94.37
3084,94.38
3083,94.39
3082,94.4
3081,94.41
3080,94.42
3079,94.43
3078,94.44
3077,94.45
3076,94.46
3075,94.47
3074,94.48
3073,94.51
3072,94.53
3071,94.56
3070,94.58
3069,94.61
3068,94.63
3067,94.65
3066,94.66
3065,94.68
3064,94.7
3063,94.72
3062,94.74
3061,94.77
3060,94.79
3059,94.81
3058,94.84
3057,94.86
3056,94.89
3055,94.91
3054,94.94
3053,94.96
3052,94.98
3051,95
3050,95.02
3049,95.04
3048,95.06
3047,95.08
3046,95.1
3045,95.12
3044,95.13
3043,95.15
3042,95.16
3041,95.16
3040,95.17
3039,95.18
3038,95.18
3037,95.19
3036,95.21
3035,95.22
3034,95.22
3033,95.22
3032,95.23
3031,95.23
3030,95.23
3029,95.24
3028,95.25
3027,95.26
3026,95.28
3025,95.29
3024,95.31
3023,95.32
3022,95.34
3021,95.35
3020,95.37
3019,95.39
3018,95.4
3017,95.42
3016,95.43
3015,95.44
3014,95.45
3013,95.46
3012,95.47
3011,95.48
3010,95.49
3009,95.51
3008,95.52
3007,95.53
3006,95.54
3005,95.55
3004,95.56
3003,95.57
3002,95.58
3001,95.59
3000,95.59
2999,95.6
2998,95.6
2997,95.6
2996,95.59
2995,95.59
2994,95.58
2993,95.57
2992,95.55
2991,95.53
2990,95.5
2989,95.47
2988,95.43
2987,95.39
2986,95.34
2985,95.29
2984,95.24
2983,95.17
2982,95.1
2981,95.03
2980,94.95
2979,94.86
2978,94.77
2977,94.67
2976,94.57
2975,94.46
2974,94.35
2973,94.24
2972,94.12
2971,94.01
2970,93.89
2969,93.77
2968,93.65
2967,93.53
2966,93.41
2965,93.29
2964,93.16
2963,93.04
2962,92.91
2961,92.79
2960,92.66
2959,92.55
2958,92.44
2957,92.34
2956,92.27
2955,92.21
2954,92.16
2953,92.13
2952,92.11
2951,92.09
2950,92.07
2949,92.04
2948,91.99
2947,91.92
2946,91.83
2945,91.71
2944,91.57
2943,91.4
2942,91.22
2941,91.01
2940,90.79
2939,90.56
2938,90.31
2937,90.04
2936,89.76
2935,89.47
2934,89.17
2933,88.86
2932,88.53
2931,88.18
2930,87.81
2929,87.41
2928,86.96
2927,86.47
2926,85.93
2925,85.32
2924,84.64
2923,83.9
2922,83.1
2921,82.27
2920,81.45
2919,80.71
2918,80.15
2917,79.86
2916,79.92
2915,80.34
2914,81.06
2913,81.96
2912,82.94
2911,83.89
2910,84.74
2909,85.47
2908,86.09
2907,86.61
2906,87.05
2905,87.42
2904,87.73
2903,88.01
2902,88.26
2901,88.48
2900,88.68
2899,88.87
2898,89.05
2897,89.21
2896,89.38
2895,89.54
2894,89.7
2893,89.85
2892,90.01
2891,90.16
2890,90.31
2889,90.46
2888,90.61
2887,90.75
2886,90.88
2885,91.01
2884,91.13
2883,91.23
2882,91.33
2881,91.41
2880,91.48
2879,91.54
2878,91.57
2877,91.59
2876,91.58
2875,91.57
2874,91.54
2873,91.51
2872,91.48
2871,91.46
2870,91.45
2869,91.44
2868,91.42
2867,91.39
2866,91.34
2865,91.25
2864,91.14
2863,90.98
2862,90.78
2861,90.52
2860,90.21
2859,89.83
2858,89.36
2857,88.77
2856,88.06
2855,87.19
2854,86.21
2853,85.18
2852,84.24
2851,83.58
2850,83.35
2849,83.61
2848,84.31
2847,85.29
2846,86.37
2845,87.4
2844,88.33
2843,89.12
2842,89.78
2841,90.33
2840,90.79
2839,91.17
2838,91.5
2837,91.77
2836,92.01
2835,92.21
2834,92.39
2833,92.54
2832,92.68
2831,92.81
2830,92.92
2829,93.03
2828,93.12
2827,93.2
2826,93.28
2825,93.35
2824,93.41
2823,93.47
2822,93.53
2821,93.58
2820,93.63
2819,93.68
2818,93.73
2817,93.77
2816,93.82
2815,93.86
2814,93.9
2813,93.94
2812,93.97
2811,94.01
2810,94.04
2809,94.08
2808,94.11
2807,94.15
2806,94.18
2805,94.22
2804,94.26
2803,94.29
2802,94.32
2801,94.35
2800,94.39
2799,94.42
2798,94.45
2797,94.48
2796,94.51
2795,94.55
2794,94.58
2793,94.61
2792,94.65
2791,94.68
2790,94.71
2789,94.74
2788,94.76
2787,94.79
2786,94.81
2785,94.84
2784,94.86
2783,94.89
2782,94.91
2781,94.93
2780,94.96
2779,94.98
2778,95
2777,95.02
2776,95.04
2775,95.06
2774,95.07
2773,95.08
2772,95.1
2771,95.11
2770,95.12
2769,95.13
2768,95.14
2767,95.16
2766,95.17
2765,95.18
2764,95.19
2763,95.2
2762,95.21
2761,95.22
2760,95.23
2759,95.24
2758,95.25
2757,95.26
2756,95.27
2755,95.28
2754,95.29
2753,95.31
2752,95.32
2751,95.33
2750,95.34
2749,95.35
2748,95.36
2747,95.37
2746,95.38
2745,95.38
2744,95.39
2743,95.39
2742,95.4
2741,95.41
2740,95.42
2739,95.43
2738,95.44
2737,95.44
2736,95.45
2735,95.46
2734,95.47
2733,95.47
2732,95.48
2731,95.48
2730,95.49
2729,95.5
2728,95.52
2727,95.53
2726,95.54
2725,95.55
2724,95.55
2723,95.56
2722,95.57
2721,95.58
2720,95.58
2719,95.59
2718,95.59
2717,95.6
2716,95.6
2715,95.6
2714,95.61
2713,95.61
2712,95.62
2711,95.62
2710,95.62
2709,95.62
2708,95.63
2707,95.63
2706,95.63
2705,95.63
2704,95.63
2703,95.63
2702,95.63
2701,95.63
2700,95.63
2699,95.63
2698,95.62
2697,95.62
2696,95.62
2695,95.62
2694,95.63
2693,95.63
2692,95.63
2691,95.63
2690,95.63
2689,95.63
2688,95.64
2687,95.64
2686,95.65
2685,95.66
2684,95.67
2683,95.68
2682,95.69
2681,95.7
2680,95.71
2679,95.72
2678,95.73
2677,95.75
2676,95.76
2675,95.77
2674,95.79
2673,95.8
2672,95.82
2671,95.83
2670,95.84
2669,95.85
2668,95.86
2667,95.87
2666,95.88
2665,95.89
2664,95.9
2663,95.91
2662,95.92
2661,95.93
2660,95.93
2659,95.94
2658,95.95
2657,95.96
2656,95.97
2655,95.98
2654,95.99
2653,96
2652,96.01
2651,96.02
2650,96.03
2649,96.04
2648,96.05
2647,96.05
2646,96.06
2645,96.07
2644,96.08
2643,96.09
2642,96.09
2641,96.1
2640,96.11
2639,96.11
2638,96.11
2637,96.12
2636,96.12
2635,96.12
2634,96.12
2633,96.12
2632,96.12
2631,96.13
2630,96.13
2629,96.14
2628,96.14
2627,96.14
2626,96.14
2625,96.14
2624,96.14
2623,96.15
2622,96.15
2621,96.16
2620,96.17
2619,96.18
2618,96.18
2617,96.19
2616,96.19
2615,96.2
2614,96.21
2613,96.22
2612,96.23
2611,96.24
2610,96.25
2609,96.26
2608,96.27
2607,96.28
2606,96.29
2605,96.29
2604,96.3
2603,96.31
2602,96.32
2601,96.32
2600,96.33
2599,96.33
2598,96.34
2597,96.34
2596,96.35
2595,96.35
2594,96.36
2593,96.37
2592,96.37
2591,96.37
2590,96.38
2589,96.39
2588,96.39
2587,96.39
2586,96.4
2585,96.4
2584,96.4
2583,96.4
2582,96.41
2581,96.41
2580,96.42
2579,96.43
2578,96.43
2577,96.44
2576,96.44
2575,96.44
2574,96.44
2573,96.44
2572,96.44
2571,96.44
2570,96.44
2569,96.44
2568,96.44
2567,96.45
2566,96.45
2565,96.46
2564,96.46
2563,96.47
2562,96.47
2561,96.47
2560,96.48
2559,96.49
2558,96.5
2557,96.5
2556,96.51
2555,96.52
2554,96.52
2553,96.53
2552,96.54
2551,96.55
2550,96.56
2549,96.57
2548,96.58
2547,96.59
2546,96.6
2545,96.61
2544,96.62
2543,96.62
2542,96.63
2541,96.63
2540,96.64
2539,96.64
2538,96.65
2537,96.66
2536,96.67
2535,96.67
2534,96.68
2533,96.7
2532,96.71
2531,96.71
2530,96.72
2529,96.72
2528,96.72
2527,96.73
2526,96.74
2525,96.74
2524,96.75
2523,96.75
2522,96.76
2521,96.76
2520,96.77
2519,96.77
2518,96.78
2517,96.79
2516,96.8
2515,96.81
2514,96.81
2513,96.82
2512,96.83
2511,96.84
2510,96.84
2509,96.84
2508,96.84
2507,96.84
2506,96.84
2505,96.84
2504,96.84
2503,96.85
2502,96.86
2501,96.87
2500,96.87
2499,96.87
2498,96.87
2497,96.88
2496,96.88
2495,96.89
2494,96.9
2493,96.91
2492,96.91
2491,96.91
2490,96.92
2489,96.92
2488,96.93
2487,96.93
2486,96.94
2485,96.94
2484,96.95
2483,96.95
2482,96.96
2481,96.96
2480,96.96
2479,96.97
2478,96.98
2477,96.98
2476,96.99
2475,97
2474,97.01
2473,97.02
2472,97.02
2471,97.03
2470,97.03
2469,97.04
2468,97.05
2467,97.06
2466,97.07
2465,97.07
2464,97.08
2463,97.08
2462,97.09
2461,97.1
2460,97.11
2459,97.11
2458,97.12
2457,97.12
2456,97.12
2455,97.13
2454,97.14
2453,97.15
2452,97.16
2451,97.16
2450,97.17
2449,97.18
2448,97.18
2447,97.19
2446,97.19
2445,97.2
2444,97.2
2443,97.21
2442,97.22
2441,97.23
2440,97.24
2439,97.25
2438,97.25
2437,97.26
2436,97.26
2435,97.26
2434,97.26
2433,97.26
2432,97.26
2431,97.27
2430,97.28
2429,97.29
2428,97.3
2427,97.3
2426,97.31
2425,97.31
2424,97.31
2423,97.32
2422,97.33
2421,97.34
2420,97.34
2419,97.34
2418,97.34
2417,97.35
2416,97.35
2415,97.35
2414,97.35
2413,97.36
2412,97.36
2411,97.37
2410,97.37
2409,97.38
2408,97.39
2407,97.39
2406,97.4
2405,97.41
2404,97.42
2403,97.42
2402,97.43
2401,97.43
2400,97.43
2399,97.43
2398,97.44
2397,97.44
2396,97.44
2395,97.45
2394,97.45
2393,97.45
2392,97.45
2391,97.46
2390,97.46
2389,97.47
2388,97.47
2387,97.47
2386,97.47
2385,97.46
2384,97.45
2383,97.44
2382,97.44
2381,97.44
2380,97.45
2379,97.47
2378,97.49
2377,97.5
2376,97.52
2375,97.53
2374,97.54
2373,97.55
2372,97.55
2371,97.55
2370,97.55
2369,97.55
2368,97.55
2367,97.54
2366,97.53
2365,97.51
2364,97.5
2363,97.49
2362,97.47
2361,97.46
2360,97.44
2359,97.44
2358,97.45
2357,97.46
2356,97.48
2355,97.49
2354,97.48
2353,97.47
2352,97.47
2351,97.47
2350,97.47
2349,97.46
2348,97.45
2347,97.43
2346,97.43
2345,97.44
2344,97.44
2343,97.44
2342,97.43
2341,97.44
2340,97.45
2339,97.45
2338,97.44
2337,97.44
2336,97.43
2335,97.42
2334,97.42
2333,97.42
2332,97.43
2331,97.43
2330,97.43
2329,97.42
2328,97.4
2327,97.37
2326,97.34
2325,97.32
2324,97.32
2323,97.34
2322,97.37
2321,97.4
2320,97.43
2319,97.45
2318,97.47
2317,97.48
2316,97.49
2315,97.5
2314,97.51
2313,97.51
2312,97.51
2311,97.51
2310,97.52
2309,97.52
2308,97.53
2307,97.55
2306,97.56
2305,97.57
2304,97.58
2303,97.58
2302,97.59
2301,97.6
2300,97.61
2299,97.62
2298,97.62
2297,97.62
2296,97.62
2295,97.62
2294,97.63
2293,97.63
2292,97.64
2291,97.64
2290,97.64
2289,97.65
2288,97.64
2287,97.64
2286,97.64
2285,97.65
2284,97.66
2283,97.67
2282,97.68
2281,97.69
2280,97.7
2279,97.71
2278,97.72
2277,97.72
2276,97.73
2275,97.72
2274,97.72
2273,97.72
2272,97.72
2271,97.73
2270,97.73
2269,97.74
2268,97.73
2267,97.73
2266,97.74
2265,97.75
2264,97.75
2263,97.76
2262,97.76
2261,97.75
2260,97.74
2259,97.74
2258,97.75
2257,97.75
2256,97.76
2255,97.77
2254,97.78
2253,97.78
2252,97.78
2251,97.77
2250,97.77
2249,97.77
2248,97.76
2247,97.77
2246,97.77
2245,97.76
2244,97.76
2243,97.77
2242,97.77
2241,97.77
2240,97.77
2239,97.78
2238,97.78
2237,97.79
2236,97.79
2235,97.81
2234,97.82
2233,97.82
2232,97.81
2231,97.8
2230,97.8
2229,97.8
2228,97.8
2227,97.8
2226,97.8
2225,97.79
2224,97.79
2223,97.8
2222,97.81
2221,97.82
2220,97.84
2219,97.84
2218,97.84
2217,97.83
2216,97.82
2215,97.82
2214,97.82
2213,97.83
2212,97.83
2211,97.83
2210,97.84
2209,97.86
2208,97.88
2207,97.89
2206,97.89
2205,97.87
2204,97.86
2203,97.84
2202,97.84
2201,97.85
2200,97.85
2199,97.85
2198,97.84
2197,97.84
2196,97.82
2195,97.82
2194,97.82
2193,97.84
2192,97.86
2191,97.87
2190,97.88
2189,97.88
2188,97.88
2187,97.88
2186,97.88
2185,97.9
2184,97.91
2183,97.93
2182,97.96
2181,97.99
2180,98
2179,98.02
2178,98.04
2177,98.06
2176,98.08
2175,98.09
2174,98.09
2173,98.07
2172,98.04
2171,98.01
2170,97.98
2169,97.96
2168,97.94
2167,97.93
2166,97.94
2165,97.94
2164,97.93
2163,97.9
2162,97.87
2161,97.88
2160,97.94
2159,98.07
2158,98.2
2157,98.28
2156,98.32
2155,98.35
2154,98.36
2153,98.36
2152,98.34
2151,98.31
2150,98.28
2149,98.26
2148,98.25
2147,98.26
2146,98.29
2145,98.3
2144,98.3
2143,98.29
2142,98.28
2141,98.26
2140,98.26
2139,98.26
2138,98.28
2137,98.31
2136,98.34
2135,98.37
2134,98.4
2133,98.4
2132,98.39
2131,98.38
2130,98.37
2129,98.35
2128,98.33
2127,98.31
2126,98.31
2125,98.3
2124,98.29
2123,98.27
2122,98.26
2121,98.25
2120,98.24
2119,98.24
2118,98.24
2117,98.24
2116,98.23
2115,98.22
2114,98.21
2113,98.21
2112,98.22
2111,98.23
2110,98.23
2109,98.24
2108,98.24
2107,98.24
2106,98.24
2105,98.24
2104,98.24
2103,98.25
2102,98.25
2101,98.24
2100,98.24
2099,98.24
2098,98.24
2097,98.25
2096,98.27
2095,98.29
2094,98.32
2093,98.32
2092,98.32
2091,98.3
2090,98.29
2089,98.28
2088,98.27
2087,98.27
2086,98.27
2085,98.27
2084,98.27
2083,98.27
2082,98.28
2081,98.28
2080,98.28
2079,98.29
2078,98.29
2077,98.29
2076,98.29
2075,98.3
2074,98.31
2073,98.31
2072,98.32
2071,98.33
2070,98.33
2069,98.33
2068,98.32
2067,98.31
2066,98.32
2065,98.32
2064,98.32
2063,98.32
2062,98.33
2061,98.34
2060,98.35
2059,98.34
2058,98.34
2057,98.33
2056,98.33
2055,98.35
2054,98.36
2053,98.34
2052,98.29
2051,98.25
2050,98.24
2049,98.25
2048,98.27
2047,98.3
2046,98.32
2045,98.33
2044,98.32
2043,98.32
2042,98.31
2041,98.31
2040,98.31
2039,98.3
2038,98.29
2037,98.28
2036,98.26
2035,98.25
2034,98.25
2033,98.24
2032,98.24
2031,98.24
2030,98.26
2029,98.28
2028,98.31
2027,98.34
2026,98.36
2025,98.37
2024,98.38
2023,98.41
2022,98.43
2021,98.44
2020,98.45
2019,98.46
2018,98.47
2017,98.47
2016,98.46
2015,98.46
2014,98.47
2013,98.47
2012,98.47
2011,98.48
2010,98.48
2009,98.48
2008,98.5
2007,98.53
2006,98.57
2005,98.59
2004,98.59
2003,98.6
2002,98.6
2001,98.6
2000,98.59
1999,98.58
1998,98.57
1997,98.56
1996,98.55
1995,98.55
1994,98.55
1993,98.54
1992,98.53
1991,98.53
1990,98.52
1989,98.51
1988,98.5
1987,98.5
1986,98.51
1985,98.52
1984,98.51
1983,98.5
1982,98.48
1981,98.45
1980,98.44
1979,98.46
1978,98.51
1977,98.57
1976,98.6
1975,98.62
1974,98.62
1973,98.63
1972,98.64
1971,98.67
1970,98.7
1969,98.7
1968,98.69
1967,98.69
1966,98.7
1965,98.71
1964,98.72
1963,98.73
1962,98.76
1961,98.8
1960,98.82
1959,98.84
1958,98.84
1957,98.84
1956,98.84
1955,98.84
1954,98.85
1953,98.85
1952,98.85
1951,98.85
1950,98.85
1949,98.84
1948,98.83
1947,98.83
1946,98.83
1945,98.84
1944,98.86
1943,98.88
1942,98.89
1941,98.88
1940,98.86
1939,98.86
1938,98.86
1937,98.86
1936,98.86
1935,98.86
1934,98.86
1933,98.86
1932,98.85
1931,98.86
1930,98.87
1929,98.87
1928,98.87
1927,98.86
1926,98.87
1925,98.87
1924,98.87
1923,98.87
1922,98.85
1921,98.81
1920,98.79
1919,98.8
1918,98.83
1917,98.85
1916,98.86
1915,98.85
1914,98.84
1913,98.84
1912,98.84
1911,98.85
1910,98.87
1909,98.88
1908,98.89
1907,98.89
1906,98.89
1905,98.89
1904,98.89
1903,98.9
1902,98.91
1901,98.92
1900,98.92
1899,98.92
1898,98.92
1897,98.92
1896,98.92
1895,98.93
1894,98.93
1893,98.93
1892,98.92
1891,98.94
1890,98.97
1889,98.99
1888,99
1887,99
1886,99
1885,99.01
1884,99.01
1883,99.02
1882,99.02
1881,99.02
1880,99.01
1879,99
1878,99
1877,99.01
1876,99.01
1875,99.02
1874,99.02
1873,99.01
1872,98.99
1871,98.98
1870,99
1869,99.03
1868,99.05
1867,99.07
1866,99.07
1865,99.06
1864,99.06
1863,99.06
1862,99.07
1861,99.07
1860,99.07
1859,99.07
1858,99.07
1857,99.07
1856,99.07
1855,99.07
1854,99.08
1853,99.08
1852,99.08
1851,99.07
1850,99.07
1849,99.06
1848,99.03
1847,99
1846,98.99
1845,99.02
1844,99.08
1843,99.12
1842,99.12
1841,99.1
1840,99.09
1839,99.08
1838,99.09
1837,99.09
1836,99.09
1835,99.08
1834,99.06
1833,99.02
1832,98.98
1831,98.99
1830,99.02
1829,99.05
1828,99.04
1827,99.03
1826,99.04
1825,99.06
1824,99.08
1823,99.08
1822,99.07
1821,99.06
1820,99.05
1819,99.05
1818,99.06
1817,99.07
1816,99.07
1815,99.06
1814,99.05
1813,99.03
1812,99.03
1811,99.04
1810,99.05
1809,99.05
1808,99.04
1807,99.02
1806,99.01
1805,99
1804,98.98
1803,98.97
1802,98.97
1801,98.98
1800,98.99
1799,98.99
1798,98.99
1797,98.97
1796,98.92
1795,98.87
1794,98.86
1793,98.89
1792,98.95
1791,99
1790,99
1789,98.97
1788,98.94
1787,98.93
1786,98.93
1785,98.94
1784,98.94
1783,98.92
1782,98.92
1781,98.93
1780,98.93
1779,98.92
1778,98.9
1777,98.87
1776,98.81
1775,98.75
1774,98.72
1773,98.76
1772,98.83
1771,98.88
1770,98.89
1769,98.89
1768,98.89
1767,98.89
1766,98.86
1765,98.81
1764,98.76
1763,98.75
1762,98.77
1761,98.78
1760,98.75
1759,98.72
1758,98.69
1757,98.67
1756,98.64
1755,98.58
1754,98.5
1753,98.42
1752,98.37
1751,98.35
1750,98.33
1749,98.31
1748,98.27
1747,98.23
1746,98.19
1745,98.14
1744,98.08
1743,98.01
1742,97.94
1741,97.9
1740,97.88
1739,97.87
1738,97.82
1737,97.72
1736,97.64
1735,97.66
1734,97.75
1733,97.81
1732,97.82
1731,97.78
1730,97.72
1729,97.64
1728,97.54
1727,97.42
1726,97.27
1725,97.09
1724,96.87
1723,96.62
1722,96.36
1721,96.07
1720,95.77
1719,95.42
1718,95.03
1717,94.65
1716,94.36
1715,94.15
1714,94
1713,93.92
1712,93.91
1711,93.95
1710,94.03
1709,94.14
1708,94.3
1707,94.49
1706,94.69
1705,94.83
1704,94.9
1703,94.91
1702,94.91
1701,94.9
1700,94.83
1699,94.75
1698,94.66
1697,94.53
1696,94.37
1695,94.23
1694,94.14
1693,94.06
1692,93.98
1691,93.9
1690,93.84
1689,93.82
1688,93.82
1687,93.85
1686,93.97
1685,94.19
1684,94.41
1683,94.57
1682,94.71
1681,94.82
1680,94.91
1679,94.96
1678,94.99
1677,95.01
1676,95.04
1675,95.04
1674,95.02
1673,94.97
1672,94.91
1671,94.81
1670,94.67
1669,94.48
1668,94.29
1667,94.12
1666,93.95
1665,93.75
1664,93.49
1663,93.16
1662,92.83
1661,92.55
1660,92.31
1659,92.1
1658,91.89
1657,91.69
1656,91.5
1655,91.28
1654,90.87
1653,90.24
1652,89.88
1651,89.88
1650,89.96
1649,89.97
1648,89.8
1647,89.44
1646,89.06
1645,88.85
1644,88.76
1643,88.69
1642,88.61
1641,88.51
1640,88.42
1639,88.36
1638,88.35
1637,88.32
1636,88.24
1635,88.2
1634,88.32
1633,88.55
1632,88.8
1631,89.03
1630,89.22
1629,89.37
1628,89.49
1627,89.61
1626,89.75
1625,89.93
1624,90.11
1623,90.27
1622,90.42
1621,90.59
1620,90.75
1619,90.88
1618,90.93
1617,90.85
1616,90.66
1615,90.45
1614,90.24
1613,89.99
1612,89.72
1611,89.46
1610,89.27
1609,89.23
1608,89.33
1607,89.56
1606,89.9
1605,90.29
1604,90.69
1603,91.07
1602,91.38
1601,91.62
1600,91.75
1599,91.79
1598,91.74
1597,91.61
1596,91.41
1595,91.17
1594,90.94
1593,90.76
1592,90.66
1591,90.63
1590,90.71
1589,90.88
1588,91.14
1587,91.44
1586,91.75
1585,92.05
1584,92.31
1583,92.53
1582,92.69
1581,92.81
1580,92.88
1579,92.91
1578,92.9
1577,92.88
1576,92.84
1575,92.8
1574,92.8
1573,92.79
1572,92.76
1571,92.69
1570,92.55
1569,92.4
1568,92.29
1567,92.22
1566,92.15
1565,92.05
1564,91.93
1563,91.82
1562,91.73
1561,91.67
1560,91.53
1559,91.17
1558,90.88
1557,90.88
1556,90.96
1555,90.99
1554,90.99
1553,90.98
1552,90.99
1551,90.99
1550,90.95
1549,90.91
1548,90.9
1547,90.93
1546,90.97
1545,90.99
1544,90.98
1543,90.97
1542,91
1541,91.05
1540,91.12
1539,91.27
1538,91.51
1537,91.76
1536,92
1535,92.25
1534,92.51
1533,92.75
1532,92.96
1531,93.17
1530,93.38
1529,93.59
1528,93.79
1527,93.97
1526,94.13
1525,94.23
1524,94.27
1523,94.27
1522,94.19
1521,94.01
1520,93.8
1519,93.58
1518,93.29
1517,92.97
1516,92.74
1515,92.73
1514,92.91
1513,93.21
1512,93.58
1511,93.95
1510,94.24
1509,94.47
1508,94.72
1507,95.06
1506,95.37
1505,95.61
1504,95.77
1503,95.88
1502,95.96
1501,96.02
1500,96.05
1499,96.09
1498,96.15
1497,96.23
1496,96.3
1495,96.36
1494,96.39
1493,96.38
1492,96.37
1491,96.38
1490,96.4
1489,96.4
1488,96.37
1487,96.34
1486,96.3
1485,96.23
1484,96.14
1483,96.03
1482,95.88
1481,95.69
1480,95.47
1479,95.24
1478,94.97
1477,94.64
1476,94.25
1475,93.8
1474,93.27
1473,92.63
1472,92.03
1471,91.64
1470,91.41
1469,91.25
1468,91.14
1467,91.13
1466,91.26
1465,91.54
1464,91.87
1463,92.18
1462,92.42
1461,92.59
1460,92.7
1459,92.75
1458,92.76
1457,92.74
1456,92.76
1455,92.84
1454,92.95
1453,93.05
1452,93.14
1451,93.2
1450,93.26
1449,93.3
1448,93.33
1447,93.36
1446,93.39
1445,93.44
1444,93.49
1443,93.55
1442,93.61
1441,93.66
1440,93.71
1439,93.76
1438,93.85
1437,93.98
1436,94.13
1435,94.27
1434,94.41
1433,94.55
1432,94.7
1431,94.85
1430,94.99
1429,95.13
1428,95.23
1427,95.3
1426,95.36
1425,95.41
1424,95.45
1423,95.45
1422,95.43
1421,95.42
1420,95.47
1419,95.54
1418,95.64
1417,95.73
1416,95.81
1415,95.88
1414,95.95
1413,96.02
1412,96.08
1411,96.13
1410,96.16
1409,96.18
1408,96.19
1407,96.19
1406,96.18
1405,96.18
1404,96.16
1403,96.12
1402,96.06
1401,96
1400,95.93
1399,95.84
1398,95.75
1397,95.65
1396,95.54
1395,95.42
1394,95.32
1393,95.24
1392,95.18
1391,95.12
1390,95.07
1389,95.03
1388,94.99
1387,94.94
1386,94.89
1385,94.83
1384,94.76
1383,94.68
1382,94.6
1381,94.53
1380,94.47
1379,94.43
1378,94.41
1377,94.42
1376,94.45
1375,94.49
1374,94.54
1373,94.58
1372,94.62
1371,94.64
1370,94.67
1369,94.7
1368,94.72
1367,94.75
1366,94.77
1365,94.8
1364,94.84
1363,94.88
1362,94.92
1361,94.95
1360,94.99
1359,95.03
1358,95.07
1357,95.12
1356,95.16
1355,95.21
1354,95.25
1353,95.29
1352,95.33
1351,95.37
1350,95.41
1349,95.45
1348,95.48
1347,95.5
1346,95.51
1345,95.5
1344,95.49
1343,95.47
1342,95.45
1341,95.44
1340,95.43
1339,95.42
1338,95.4
1337,95.39
1336,95.36
1335,95.31
1334,95.27
1333,95.23
1332,95.2
1331,95.17
1330,95.15
1329,95.12
1328,95.09
1327,95.05
1326,95.01
1325,94.97
1324,94.92
1323,94.85
1322,94.77
1321,94.66
1320,94.51
1319,94.33
1318,94.12
1317,93.87
1316,93.61
1315,93.35
1314,93.09
1313,92.88
1312,92.73
1311,92.69
1310,92.76
1309,92.92
1308,93.14
1307,93.38
1306,93.6
1305,93.78
1304,93.87
1303,93.88
1302,93.8
1301,93.65
1300,93.43
1299,93.16
1298,92.88
1297,92.58
1296,92.25
1295,91.89
1294,91.5
1293,91.07
1292,90.61
1291,90.15
1290,89.69
1289,89.23
1288,88.78
1287,88.35
1286,87.96
1285,87.6
1284,87.27
1283,86.98
1282,86.75
1281,86.57
1280,86.47
1279,86.44
1278,86.46
1277,86.53
1276,86.63
1275,86.76
1274,86.91
1273,87.08
1272,87.29
1271,87.54
1270,87.85
1269,88.19
1268,88.55
1267,88.91
1266,89.26
1265,89.61
1264,89.96
1263,90.32
1262,90.66
1261,90.97
1260,91.23
1259,91.43
1258,91.59
1257,91.71
1256,91.8
1255,91.86
1254,91.9
1253,91.91
1252,91.9
1251,91.88
1250,91.86
1249,91.84
1248,91.82
1247,91.82
1246,91.82
1245,91.84
1244,91.86
1243,91.9
1242,91.95
1241,92.02
1240,92.09
1239,92.18
1238,92.29
1237,92.41
1236,92.54
1235,92.69
1234,92.85
1233,93.02
1232,93.2
1231,93.38
1230,93.56
1229,93.72
1228,93.89
1227,94.04
1226,94.18
1225,94.32
1224,94.43
1223,94.53
1222,94.62
1221,94.7
1220,94.77
1219,94.84
1218,94.91
1217,94.97
1216,95.03
1215,95.09
1214,95.15
1213,95.21
1212,95.27
1211,95.32
1210,95.35
1209,95.38
1208,95.41
1207,95.43
1206,95.44
1205,95.46
1204,95.47
1203,95.48
1202,95.5
1201,95.53
1200,95.55
1199,95.59
1198,95.62
1197,95.67
1196,95.71
1195,95.76
1194,95.79
1193,95.82
1192,95.85
1191,95.87
1190,95.88
1189,95.89
1188,95.88
1187,95.86
1186,95.83
1185,95.81
1184,95.77
1183,95.73
1182,95.69
1181,95.63
1180,95.56
1179,95.47
1178,95.36
1177,95.22
1176,95.04
1175,94.81
1174,94.5
1173,94.11
1172,93.63
1171,93.06
1170,92.43
1169,91.78
1168,91.16
1167,90.65
1166,90.32
1165,90.21
1164,90.35
1163,90.74
1162,91.32
1161,92.03
1160,92.75
1159,93.4
1158,93.93
1157,94.32
1156,94.61
1155,94.82
1154,94.98
1153,95.11
1152,95.2
1151,95.27
1150,95.33
1149,95.37
1148,95.4
1147,95.43
1146,95.44
1145,95.45
1144,95.46
1143,95.45
1142,95.44
1141,95.4
1140,95.34
1139,95.26
1138,95.15
1137,95.03
1136,94.89
1135,94.73
1134,94.56
1133,94.39
1132,94.2
1131,94.01
1130,93.82
1129,93.63
1128,93.44
1127,93.27
1126,93.12
1125,93
1124,92.89
1123,92.81
1122,92.75
1121,92.71
1120,92.68
1119,92.65
1118,92.63
1117,92.59
1116,92.55
1115,92.5
1114,92.45
1113,92.41
1112,92.39
1111,92.39
1110,92.42
1109,92.46
1108,92.5
1107,92.52
1106,92.52
1105,92.49
1104,92.42
1103,92.32
1102,92.22
1101,92.15
1100,92.13
1099,92.19
1098,92.32
1097,92.53
1096,92.77
1095,93.04
1094,93.29
1093,93.52
1092,93.72
1091,93.89
1090,94.03
1089,94.16
1088,94.27
1087,94.38
1086,94.47
1085,94.56
1084,94.63
1083,94.69
1082,94.73
1081,94.76
1080,94.78
1079,94.77
1078,94.76
1077,94.73
1076,94.7
1075,94.66
1074,94.62
1073,94.58
1072,94.54
1071,94.5
1070,94.46
1069,94.42
1068,94.38
1067,94.33
1066,94.29
1065,94.24
1064,94.18
1063,94.13
1062,94.07
1061,94.02
1060,93.98
1059,93.95
1058,93.94
1057,93.94
1056,93.93
1055,93.92
1054,93.92
1053,93.91
1052,93.92
1051,93.92
1050,93.93
1049,93.95
1048,93.98
1047,94
1046,94.04
1045,94.07
1044,94.1
1043,94.13
1042,94.15
1041,94.16
1040,94.16
1039,94.14
1038,94.12
1037,94.11
1036,94.09
1035,94.06
1034,94.05
1033,94.03
1032,94.01
1031,93.99
1030,93.96
1029,93.94
1028,93.91
1027,93.87
1026,93.83
1025,93.77
1024,93.71
1023,93.63
1022,93.56
1021,93.49
1020,93.42
1019,93.36
1018,93.31
1017,93.28
1016,93.26
1015,93.28
1014,93.33
1013,93.4
1012,93.49
1011,93.6
1010,93.7
1009,93.81
1008,93.9
1007,93.98
1006,94.04
1005,94.08
1004,94.1
1003,94.12
1002,94.13
1001,94.15
1000,94.18
999,94.2
998,94.22
997,94.24
996,94.26
995,94.28
994,94.31
993,94.33
992,94.34
991,94.36
990,94.37
989,94.39
988,94.4
987,94.4
986,94.41
985,94.42
984,94.44
983,94.47
982,94.52
981,94.58
980,94.63
979,94.69
978,94.74
977,94.79
976,94.84
975,94.89
974,94.93
973,94.97
972,95.01
971,95.05
970,95.09
969,95.13
968,95.16
967,95.18
966,95.2
965,95.22
964,95.23
963,95.23
962,95.23
961,95.23
960,95.23
959,95.22
958,95.2
957,95.18
956,95.16
955,95.15
954,95.14
953,95.14
952,95.14
951,95.16
950,95.19
949,95.23
948,95.29
947,95.35
946,95.41
945,95.48
944,95.54
943,95.59
942,95.63
941,95.65
940,95.67
939,95.69
938,95.71
937,95.72
936,95.73
935,95.72
934,95.72
933,95.73
932,95.74
931,95.76
930,95.77
929,95.78
928,95.78
927,95.78
926,95.78
925,95.79
924,95.79
923,95.79
922,95.79
921,95.78
920,95.77
919,95.75
918,95.74
917,95.72
916,95.71
915,95.7
914,95.68
913,95.65
912,95.62
911,95.58
910,95.54
909,95.5
908,95.46
907,95.41
906,95.37
905,95.33
904,95.28
903,95.22
902,95.18
901,95.14
900,95.11
899,95.08
898,95.05
897,95.03
896,95.01
895,94.98
894,94.96
893,94.94
892,94.92
891,94.91
890,94.91
889,94.91
888,94.92
887,94.91
886,94.91
885,94.89
884,94.87
883,94.84
882,94.8
881,94.75
880,94.68
879,94.61
878,94.52
877,94.42
876,94.32
875,94.2
874,94.08
873,93.95
872,93.8
871,93.64
870,93.47
869,93.31
868,93.14
867,92.97
866,92.8
865,92.61
864,92.41
863,92.21
862,91.99
861,91.77
860,91.53
859,91.29
858,91.06
857,90.82
856,90.58
855,90.34
854,90.12
853,89.92
852,89.74
851,89.59
850,89.47
849,89.36
848,89.26
847,89.15
846,89.04
845,88.91
844,88.78
843,88.64
842,88.5
841,88.34
840,88.18
839,88.03
838,87.88
837,87.73
836,87.57
835,87.41
834,87.26
833,87.1
832,86.95
831,86.8
830,86.64
829,86.49
828,86.33
827,86.17
826,86.03
825,85.88
824,85.72
823,85.57
822,85.43
821,85.28
820,85.13
819,84.98
818,84.83
817,84.69
816,84.54
815,84.4
814,84.26
813,84.12
812,83.97
811,83.83
810,83.7
809,83.58
808,83.46
807,83.35
806,83.25
805,83.14
804,83.02
803,82.9
802,82.8
801,82.69
800,82.58
799,82.48
798,82.38
797,82.28
796,82.18
795,82.09
794,82.01
793,81.92
792,81.83
791,81.73
790,81.65
789,81.56
788,81.48
787,81.38
786,81.29
785,81.19
784,81.08
783,80.98
782,80.87
781,80.76
780,80.64
779,80.5
778,80.36
777,80.2
776,80.03
775,79.85
774,79.65
773,79.45
772,79.26
771,79.1
770,78.99
769,78.92
768,78.85
767,78.8
766,78.75
765,78.69
764,78.62
763,78.55
762,78.48
761,78.41
760,78.33
759,78.26
758,78.18
757,78.11
756,78.02
755,77.95
754,77.87
753,77.79
752,77.7
751,77.61
750,77.51
749,77.4
748,77.27
747,77.14
746,77.03
745,76.91
744,76.8
743,76.69
742,76.57
741,76.45
740,76.32
739,76.19
738,76.06
737,75.93
736,75.79
735,75.66
734,75.55
733,75.43
732,75.31
731,75.18
730,75.04
729,74.89
728,74.73
727,74.56
726,74.4
725,74.24
724,74.07
723,73.92
722,73.76
721,73.58
720,73.4
719,73.25
718,73.13
717,73.02
716,72.92
715,72.83
714,72.75
713,72.65
712,72.54
711,72.42
710,72.3
709,72.16
708,72.03
707,71.92
706,71.81
705,71.69
704,71.57
703,71.47
702,71.37
701,71.25
700,71.12
699,71
698,70.88
697,70.76
696,70.64
695,70.54
694,70.43
693,70.31
692,70.19
691,70.08
690,69.98
689,69.87
688,69.74
687,69.63
686,69.53
685,69.41
684,69.29
683,69.19
682,69.08
681,68.96
680,68.84
679,68.73
678,68.62
677,68.51
676,68.39
675,68.28
674,68.16
673,68.04
672,67.99
671,68.07
670,68.19
669,68.13
668,67.73
667,67.28
666,67.05
665,67
664,66.99
663,66.95
662,66.88
661,66.79
660,66.69
659,66.6
658,66.51
657,66.41
656,66.31
655,66.23
654,66.16
653,66.07
652,65.97
651,65.87
650,65.77
649,65.66
648,65.52
647,65.38
646,65.23
645,65.07
644,64.89
643,64.7
642,64.5
641,64.26
640,63.96
639,63.6
638,63.17
637,62.63
636,62
635,61.35
634,60.81
633,60.46
632,60.39
631,60.65
630,61.17
629,61.84
628,62.5
627,63.09
626,63.54
625,63.83
624,64
623,64.11
622,64.18
621,64.19
620,64.14
619,64.08
618,64
617,63.9
616,63.79
615,63.72
614,63.65
613,63.56
612,63.45
611,63.36
610,63.29
609,63.21
608,63.13
607,63.06
606,62.98
605,62.88
604,62.77
603,62.67
602,62.59
601,62.48
600,62.37
599,62.28
598,62.2
597,62.12
596,62.02
595,61.94
594,61.88
593,61.78
592,61.65
591,61.51
590,61.36
589,61.19
588,61
587,60.81
586,60.56
585,60.22
584,59.79
583,59.32
582,58.84
581,58.33
580,57.83
579,57.41
578,57.06
577,56.72
576,56.37
575,56.05
574,55.74
573,55.41
572,55.05
571,54.71
570,54.37
569,53.99
568,53.58
567,53.2
566,52.88
565,52.55
564,52.22
563,51.95
562,51.72
561,51.49
560,51.25
559,51.07
558,50.94
557,50.8
556,50.66
555,50.55
554,50.45
553,50.32
552,50.19
551,50.11
550,50.05
549,49.97
548,49.87
547,49.81
546,49.79
545,49.73
544,49.65
543,49.62
542,49.61
541,49.57
540,49.52
539,49.52
538,49.54
537,49.51
536,49.47
535,49.47
534,49.52
533,49.53
532,49.52
531,49.58
530,49.71
529,49.87
528,50.06
527,50.29
526,50.52
525,50.71
524,50.93
523,51.28
522,51.73
521,52.21
520,52.73
519,53.4
518,54.25
517,55.2
516,56.28
515,57.54
514,58.99
513,60.56
512,62.25
511,64.04
510,65.9
509,67.74
508,69.53
507,71.19
506,72.56
505,73.49
504,73.99
503,74.1
502,73.88
501,73.4
500,72.8
499,72.18
498,71.52
497,70.79
496,70.02
495,69.27
494,68.58
493,67.93
492,67.29
491,66.71
490,66.19
489,65.73
488,65.35
487,65.12
486,65.02
485,65.03
484,65.24
483,65.76
482,66.56
481,67.52
480,68.46
479,69.19
478,69.56
477,69.54
476,69.28
475,68.93
474,68.49
473,67.87
472,67.14
471,66.52
470,66.08
469,65.71
468,65.33
467,64.97
466,64.68
465,64.44
464,64.22
463,64.03
462,63.85
461,63.67
460,63.5
459,63.32
458,63.04
457,62.66
456,62.35
455,62.21
454,62.13
453,61.98
452,61.78
451,61.65
450,61.57
449,61.44
448,61.25
447,61.08
446,60.93
445,60.71
444,60.41
443,60.04
442,59.57
441,58.96
440,58.36
439,57.89
438,57.5
437,57.03
436,56.51
435,56.12
434,55.88
433,55.65
432,55.39
431,55.19
430,55.02
429,54.82
428,54.61
427,54.49
426,54.36
425,54.07
424,53.69
423,53.48
422,53.45
421,53.36
420,53.1
419,52.74
418,52.45
417,52.27
416,52.24
415,52.34
414,52.41
413,52.33
412,52.25
411,52.35
410,52.5
409,52.49
408,52.48
407,52.66
406,52.8
405,52.51
404,51.9
403,51.45
402,51.25
401,51.01
400,50.64